Wavelength (nm),Abs,
799.932312,0.000319369,
798.9598389,3.84E-05,
797.9869995,0.000900704,
797.0137329,0.000166142,
796.0401001,0.001119716,
795.0661011,0.000557631,
793.9525146,0.000104074,
792.9777222,0.000479155,
792.0025024,0.000402688,
791.0269775,0.000739363,
790.0510254,0.00079286,
788.9352417,0.000753054,
787.9585571,0.000754947,
786.9814453,-0.000122009,
786.0039673,8.53E-05,
785.026123,0.000348539,
784.0479126,-5.71E-05,
783.0693359,0.000267018,
781.9505005,0.001072329,
780.9711304,0.000664561,
779.991394,0.000848879,
779.0112915,0.00074792,
778.0308228,-0.000214335,
777.0499878,0.000198254,
776.0687866,0.000992618,
774.9469604,-0.000341664,
773.9649658,6.32E-05,
772.982605,0.00033328,
771.9998779,0.000680013,
771.0167847,0.000710555,
770.0333252,0.000481435,
769.0494995,0.001313731,
768.0653687,-1.47E-05,
766.9401245,-0.000129514,
765.9551392,0.000583914,
764.9698486,0.000279529,
763.9841919,0.000409813,
762.9981079,0.000779089,
762.0117188,0.000556128,
761.0249634,0.000580726,
760.0378418,0.000220423,
759.050415,0.000581944,
758.062561,0.000123623,
756.9331665,1.53E-06,
755.9445801,0.000196286,
754.9556274,0.000623782,
753.9663086,0.000582385,
752.9766235,0.000682346,
751.9865723,-9.35E-05,
750.9962158,0.000552318,
750.0054932,0.00034499,
749.0144043,0.000749139,
748.0229492,0.000477133,
747.0311279,4.77E-05,
746.0390015,0.000327633,
745.0465088,0.000227649,
744.0536499,0.000526866,
743.0604248,0.001351666,
742.0668945,0.000621578,
740.9309692,0.000146047,
739.9366455,0.000692873,
738.9420166,0.000660335,
737.9470215,0.000503722,
736.9516602,0.000381753,
735.9559326,-2.51E-05,
734.9598999,-0.000122734,
733.963501,0.000224489,
732.9667969,0.000468012,
731.9696655,0.000223246,
730.972229,0.00104228,
729.9744873,6.93E-05,
728.9763794,0.000399397,
727.9779053,-0.000269182,
726.9790649,0.000391002,
725.9799194,0.000498902,
724.9804077,0.00030165,
723.9805908,0.000452127,
722.9804077,0.000154929,
721.9798584,0.000850876,
720.9790039,-0.00020383,
719.9778442,-0.000129462,
718.9762573,0.000537803,
717.9744263,8.34E-05,
716.972168,0.000424478,
715.9696045,0.000227623,
714.9667358,0.000738507,
713.963501,0.000320897,
712.9598999,0.0002363,
711.9559937,0.000298853,
710.9517822,0.000464073,
709.9472046,0.000132945,
708.9422607,0.000456169,
707.9370117,0.000754714,
706.9314575,0.000374084,
706.0692139,0.000316338,
705.0630493,0.000706977,
704.0565186,0.000581088,
703.0496216,0.000345171,
702.0424194,0.00082201,
701.0349121,0.000280151,
700.0270386,0.000596693,
699.0188599,0.000543972,
698.0103149,0.000670291,
697.0014648,0.000409761,
695.9923096,0.000144364,
694.9827881,0.000515592,
693.9729614,0.000584925,
692.9627686,0.000854585,
691.9522705,0.000202527,
690.9414673,0.000570357,
689.9302979,0.000861251,
689.0633545,0.00017404,
688.0516357,0.000623523,
687.0395508,0.000367995,
686.0271606,0.000789255,
685.0144043,0.000670524,
684.0013428,0.00086924,
682.9879761,0.000219543,
681.9743042,0.000926359,
680.9602661,0.001207004,
679.9459229,0.000397791,
678.9312744,0.000389189,
678.0613403,0.001178711,
677.0460815,0.00078718,
676.0305176,0.000746701,
675.0146484,0.001437365,
673.9984131,0.000974431,
672.9818726,0.000709207,
671.9650269,0.00077131,
670.947876,0.001066438,
669.9304199,0.000922053,
669.0580444,0.001129864,
668.039978,0.001501234,
667.0216064,0.001797145,
666.0028687,0.001828156,
664.9838867,0.001249292,
663.9645386,0.001831197,
662.9448853,0.002368516,
662.0706787,0.002470555,
661.0504761,0.002399307,
660.0299072,0.002489743,
659.0090942,0.003075634,
657.987915,0.003190123,
656.9664917,0.003130932,
655.9447021,0.002633947,
655.0686646,0.003259805,
654.0463257,0.003644148,
653.0236206,0.004079574,
652.0006714,0.003966706,
650.977417,0.005035111,
649.9537964,0.004799485,
648.9299316,0.004757347,
648.052063,0.005037206,
647.0275879,0.005635541,
646.0028687,0.005433847,
644.9777832,0.006244051,
643.9523926,0.006276459,
642.9267578,0.006068848,
642.0473633,0.006789384,
641.0211182,0.007576572,
639.9945679,0.007558239,
638.9677124,0.00824123,
637.9405518,0.008064928,
637.0599365,0.008009421,
636.0322266,0.008774154,
635.0042114,0.00838931,
633.9758911,0.008897764,
632.9473267,0.009307124,
632.0654297,0.009028571,
631.0362549,0.009361529,
630.0067749,0.009675181,
628.9770508,0.009549152,
627.9470215,0.009134673,
627.0638428,0.009377822,
626.0332642,0.009433743,
625.0023804,0.008641521,
623.9711914,0.009085293,
622.9396973,0.009231441,
622.0552979,0.008294709,
621.0233154,0.009261612,
619.9909668,0.00821076,
618.958374,0.008592092,
618.072998,0.008069782,
617.039856,0.007585449,
616.0064087,0.007605048,
614.9726563,0.007207526,
613.9386597,0.007754493,
613.052124,0.007304023,
612.0175171,0.006975821,
610.982666,0.006620427,
609.9475098,0.006912142,
609.0599976,0.006746344,
608.024353,0.007135654,
606.9884033,0.00628179,
605.9521484,0.006443732,
605.0636597,0.006866143,
604.0269165,0.006450721,
602.9898071,0.006330957,
601.9524536,0.006366102,
601.0631104,0.006694895,
600.0252075,0.007035828,
598.9870605,0.006227008,
597.9486084,0.006929185,
597.0582886,0.007364759,
596.0192871,0.007186182,
594.9800415,0.007575281,
593.9404907,0.008191634,
593.0492554,0.008224873,
592.0092163,0.008296767,
590.9688721,0.009073556,
589.9282227,0.009656229,
589.0360718,0.010200699,
587.9949341,0.010188482,
586.9535522,0.011103072,
586.0606689,0.01184867,
585.0187378,0.012625395,
583.9765625,0.013773401,
582.934082,0.014469055,
582.0403442,0.015846932,
580.9973145,0.016674476,
579.9541016,0.017957902,
579.0596313,0.019034229,
578.0158691,0.020736629,
576.9718018,0.021866342,
575.9274902,0.024158048,
575.0321655,0.02597115,
573.9873657,0.028147774,
572.9422607,0.030890726,
572.0462646,0.032656495,
571.0006714,0.035484787,
569.954834,0.03863715,
569.0581665,0.040865615,
568.0117798,0.044003308,
566.9651489,0.048373058,
566.0678711,0.051843341,
565.020752,0.055742539,
563.9733276,0.060182713,
562.9256592,0.065286227,
562.0274658,0.06988325,
560.9793091,0.075341478,
559.9309082,0.081143655,
559.0320435,0.086378127,
557.9831543,0.092312679,
556.934021,0.098059535,
556.0344849,0.104155801,
554.9848633,0.111053079,
553.9349365,0.117565781,
553.03479,0.123554975,
551.984375,0.129855946,
550.9337158,0.13691552,
550.032959,0.143242821,
548.9818115,0.15104413,
547.9304199,0.157655299,
547.0289917,0.163414776,
545.9771118,0.168961957,
544.9249878,0.174856842,
544.0229492,0.180360049,
542.9702759,0.188014448,
542.0678711,0.192654952,
541.0147705,0.198235706,
539.9614258,0.202831239,
539.0583496,0.207182184,
538.0045166,0.212816775,
536.9504395,0.218431369,
536.0467529,0.222006366,
534.9921875,0.225943893,
533.9373779,0.229665771,
533.0330811,0.232631758,
531.9777832,0.236569658,
531.0731201,0.239436045,
530.017334,0.242856458,
528.9613647,0.246442944,
528.0560303,0.248156726,
526.9995728,0.249941036,
525.9429321,0.252900869,
525.0369873,0.255275607,
523.9797974,0.257344842,
523.0734863,0.25933069,
522.0158691,0.261749119,
520.9580078,0.263911128,
520.0510864,0.265749425,
518.9927368,0.267721295,
517.9342041,0.269405663,
517.0266724,0.270826519,
515.9676514,0.272900194,
515.0596924,0.274733603,
514.0002441,0.27685681,
512.9405518,0.278202295,
512.0319824,0.279990822,
510.9718628,0.282084584,
510.0629578,0.283491701,
509.0023499,0.28548038,
507.9414978,0.286933929,
507.0320129,0.288194537,
505.9707031,0.289606839,
505.0608521,0.290526211,
503.999115,0.291444242,
502.9371338,0.292168766,
502.0266724,0.292859912,
500.9642639,0.292913914,
500.0534363,0.292757541,
498.9905701,0.29263112,
497.9274902,0.292222172,
497.0160828,0.291219235,
495.9525452,0.289776176,
495.0407715,0.288575262,
493.9768066,0.28658089,
493.0646667,0.28489399,
492.0002747,0.282290697,
490.9356384,0.280520737,
490.0229187,0.27778849,
488.9578857,0.273884207,
488.0447998,0.271825969,
486.9793091,0.268757373,
486.0658569,0.264576733,
484.999939,0.260465264,
483.9338074,0.256818831,
483.0197754,0.254533827,
481.9532166,0.249137655,
481.0388489,0.244660497,
479.9718628,0.240728736,
479.0571289,0.236498967,
477.9897156,0.231577456,
477.0746155,0.228506729,
476.0068054,0.224653542,
474.9387512,0.219225019,
474.0231018,0.21489194,
472.9546509,0.210001364,
472.0386353,0.206323966,
470.9697571,0.202423975,
470.0534058,0.19861199,
468.9841003,0.192645669,
468.0674133,0.189203948,
466.9977112,0.185103476,
465.9277649,0.180787593,
465.0105286,0.177621037,
463.9401855,0.172802299,
463.0226135,0.168801397,
461.9518738,0.164796576,
461.033905,0.161763638,
459.9627686,0.156952426,
459.0444946,0.15332818,
457.9729309,0.149251446,
457.0542908,0.145711169,
455.9823608,0.14193061,
455.063385,0.138740093,
453.9910278,0.135213316,
453.0717163,0.13215062,
451.9989624,0.129020155,
450.9260254,0.125308648,
450.0061646,0.122313634,
448.9328308,0.119610637,
448.0126343,0.117116019,
446.9389038,0.113421649,
446.0183716,0.110838048,
444.9442444,0.108815864,
444.023407,0.107424662,
442.9488831,0.10533572,
442.0276794,0.103401557,
440.9527893,0.101768732,
440.03125,0.10022004,
438.9559631,0.098796785,
438.0341187,0.097659372,
436.9584351,0.096539766,
436.0362549,0.095574886,
434.9602051,0.094515115,
434.0376892,0.093972072,
432.9612427,0.092980132,
432.0384216,0.093070284,
430.9615784,0.092652924,
430.0384521,0.092075855,
428.9612427,0.091559306,
428.0377502,0.091645867,
426.9601746,0.09113469,
426.036377,0.091180637,
424.9584351,0.090127155,
424.0343323,0.090252176,
422.9559937,0.090086542,
422.0315552,0.089580178,
420.9528809,0.088950142,
420.0281067,0.088325396,
418.9490662,0.088618435,
418.0239868,0.088169813,
416.9445496,0.087669581,
416.019165,0.087354101,
414.9393921,0.087089472,
414.0137024,0.08652021,
412.9335327,0.08586289,
412.0075378,0.086101681,
410.927002,0.085448302,
410.0007019,0.084545024,
409.0742493,0.084215119,
407.9931946,0.08427339,
407.0664368,0.084223986,
405.9850464,0.083641671,
405.0579834,0.082990885,
403.9762268,0.082386158,
403.0488281,0.082120784,
401.9667358,0.081296273,
401.0390625,0.081237622,
399.956604,0.080392294,
399.0286255,0.080015078,
397.9458008,0.079634488,
397.0175476,0.079282537,
395.9343872,0.078392379,
395.0057983,0.077958964,
394.0770874,0.076738656,
392.9934387,0.075923704,
392.0644226,0.074924998,
390.9804077,0.07397721,
390.0511169,0.073655419,
388.9667664,0.072187006,
388.0371704,0.070980832,
386.9524841,0.070279092,
386.022583,0.06930232,
384.937561,0.068780854,
384.0073853,0.067166001,
383.0770874,0.066521771,
381.9915771,0.066150047,
381.0609741,0.065338671,
379.9751282,0.063780412,
379.0442505,0.062471796,
377.9580383,0.061510619,
377.026886,0.060273409,
375.9403687,0.059846792,
375.0089111,0.058973201,
374.0773315,0.058066387,
372.9903259,0.056589831,
372.0584717,0.055226356,
370.9711609,0.054763231,
370.039032,0.053572536,
368.951355,0.052451365,
368.0189514,0.051100802,
366.9309692,0.050591588,
365.998291,0.049539179,
365.0654602,0.048500106,
363.9770203,0.047605488,
363.0439453,0.046568085,
361.9551697,0.045521773,
361.0218201,0.04572431,
359.9327393,0.045007229,
358.999115,0.044157021,
358.0653381,0.043486748,
356.9757996,0.042346563,
356.0417786,0.041872106,
354.9519348,0.041682582,
354.0176392,0.041177258,
352.9274597,0.040887941,
351.9929199,0.04146415,
351.0582275,0.040480055,
349.9676208,0.040851366,
349.0326843,0.041209649,
347.9417419,0.04143177,
347.0065613,0.041462611,
346.071228,0.042806599,
344.9798584,0.04352409,
344.044281,0.044354681,
342.9526062,0.045410138,
342.0167542,0.047019232,
340.9248047,0.048643809,
339.9887085,0.050331481,
339.0524902,0.052377854,
337.960083,0.055202607,
337.0235901,0.057716608,
335.9309082,0.061938785,
334.9941711,0.064896442,
334.0573425,0.068746433,
332.9642029,0.073970884,
332.0271301,0.078530006,
330.9337158,0.083899006,
329.9963684,0.089159176,
329.0588989,0.094878256,
327.9650574,0.102958016,
327.0273743,0.109607026,
325.9332275,0.116320774,
324.9953003,0.121529132,
324.0572205,0.128164932,
322.962677,0.13605769,
322.0243835,0.141896665,
320.9295654,0.149390653,
319.9909973,0.153963327,
319.0523682,0.159864634,
317.9571228,0.166669294,
317.018219,0.170928955,
315.922699,0.175896287,
314.9835815,0.180016294,
314.044342,0.183622479,
312.9484253,0.188022196,
312.0089417,0.192427859,
311.0693665,0.19556047,
309.973053,0.200133964,
309.0332336,0.203767955,
307.9366455,0.208309293,
306.996582,0.213547349,
306.056427,0.217054844,
304.9594421,0.223047003,
304.019043,0.227581888,
302.921814,0.232854858,
301.9812012,0.238290221,
301.0404663,0.242177129,
299.9428406,0.247418121,
299.0018921,0.253112316,
298.0608521,0.258137763,
296.9628296,0.264128834,
296.0215454,0.268505842,
294.9232788,0.274480194,
293.981781,0.280948281,
293.0401917,0.289242297,
291.9415283,0.29833442,
290.9997253,0.306669086,
290.0578003,0.314984202,
288.9587708,0.325130671,
288.0166321,0.3368164,
287.0744019,0.346985012,
285.9750061,0.361301273,
285.0325623,0.372040778,
283.9329224,0.388171345,
282.9902649,0.399428278,
282.0475159,0.410546571,
280.9474792,0.422957301,
280.0045166,0.432903528,
279.0614624,0.446365982,
277.9610901,0.460764319,
277.0178223,0.47258836,
276.0744324,0.481847584,
274.9737244,0.496233732,
274.0301208,0.513221145,
272.9291687,0.532758057,
271.9853821,0.550040841,
271.0415039,0.566837609,
269.9401855,0.588326514,
268.9960938,0.615507066,
268.0519409,0.643086135,
266.9502869,0.6767869,
266.0058899,0.702122033,
265.0614319,0.740103483,
263.9594421,0.789693117,
263.0147705,0.840116978,
262.0700073,0.880661786,
260.9676819,0.945667386,
260.0227051,1.018226862,
259.0776672,1.08073318,
257.9750061,1.14987433,
257.0297546,1.230649233,
255.9268646,1.319043517,
254.9814453,1.415885448,
254.0359192,1.514727592,
252.9326935,1.636686802,
251.9869843,1.740969181,
251.0411835,1.827152729,
249.9380188,1.964390397,
248.9976807,2.122957468,
248.057251,2.245449066,
246.9599762,2.395811796,
246.0193481,2.485221624,
244.9218597,2.626603127,
243.9810638,2.736710072,
243.0401764,2.90226531,
241.9423828,3.101093531,
241.0013123,3.182967186,
240.0601654,3.249258757,
238.9620667,3.182289124,
238.0207367,3.202847242,
236.9224243,3.181385756,
235.9809265,3.261261702,
235.0393372,3.648724318,
233.9407196,3.468392849,
232.9989624,3.470364809,
232.0571289,3.454667091,
230.9582062,3.560113192,
230.0162048,3.578223467,
229.0741119,3.296611786,
227.9748993,10,
227.0326385,4.385194778,
225.9332428,4.140733719,
224.9908142,3.828748941,
224.0482941,3.5930233,
222.9486084,3.739077806,
222.0059357,3.527242661,
221.0631866,3.490798473,
219.9632111,3.358343601,
219.0202942,3.486836672,
218.0773163,3.185026646,
216.977066,3.454687834,
216.033905,3.356677055,
214.9334717,3.219329596,
213.9901581,3.16664052,
213.0467682,3.52873683,
211.9460602,3.349947691,
211.0025177,3.138188839,
210.0588989,3.269293785,
208.9579163,3.165082693,
208.0141449,3.444849968,
207.0702972,3.112112761,
205.9690552,3.195617199,
205.0250549,3.235121489,
203.9236298,3.000228405,
202.9794769,3.075900078,
202.0352631,3.129996777,
200.9335785,3.11574626,
199.9890747,2.980162382,